Freq[Hz]  Imp[Ohm]  Phase[Deg]
5.00000      4.154    30.541
5.07273      4.160    30.637
5.14651      4.169    30.765
5.22137      4.181    30.940
5.29732      4.194    31.140
5.37437      4.207    31.368
5.45254      4.221    31.603
5.53185      4.235    31.844
5.61231      4.250    32.091
5.69394      4.264    32.344
5.77676      4.280    32.603
5.86079      4.295    32.867
5.94604      4.311    33.137
6.03252      4.328    33.412
6.12027      4.345    33.692
6.20929      4.362    33.978
6.29961      4.380    34.269
6.39124      4.398    34.565
6.48420      4.417    34.866
6.57851      4.436    35.172
6.67420      4.456    35.483
6.77128      4.476    35.799
6.86977      4.497    36.121
6.96969      4.518    36.447
7.07107      4.540    36.779
7.17392      4.563    37.115
7.27827      4.586    37.457
7.38413      4.609    37.804
7.49154      4.634    38.157
7.60050      4.659    38.515
7.71105      4.684    38.878
7.82321      4.711    39.247
7.93701      4.738    39.622
8.05245      4.765    40.002
8.16958      4.794    40.389
8.28841      4.823    40.782
8.40896      4.853    41.182
8.53128      4.883    41.589
8.65537      4.915    42.003
8.78126      4.947    42.425
8.90899      4.981    42.855
9.03857      5.015    43.294
9.17004      5.050    43.744
9.30342      5.085    44.204
9.43874      5.122    44.676
9.57603      5.160    45.163
9.71532      5.199    45.665
9.85663      5.239    46.185
10.0000      5.280    46.728
10.1455      5.321    47.313
10.2930      5.362    47.959
10.4427      5.400    48.687
10.5946      5.457    49.472
10.7487      5.540    50.224
10.9051      5.632    50.919
11.0637      5.741    51.519
11.2246      5.844    51.998
11.3879      5.942    52.398
11.5535      6.041    52.745
11.7216      6.143    53.041
11.8921      6.248    53.280
12.0650      6.339    53.487
12.2405      6.413    53.732
12.4186      6.485    54.032
12.5992      6.559    54.374
12.7825      6.627    54.818
12.9684      6.716    55.352
13.1570      6.801    55.925
13.3484      6.890    56.565
13.5426      7.036    57.165
13.7395      7.188    57.646
13.9394      7.353    58.033
14.1421      7.509    58.299
14.3478      7.625    58.544
14.5565      7.735    58.879
14.7683      7.849    59.312
14.9831      7.970    59.858
15.2010      8.139    60.439
15.4221      8.330    60.967
15.6464      8.545    61.415
15.8740      8.764    61.767
16.1049      8.971    62.058
16.3392      9.173    62.334
16.5768      9.383    62.614
16.8179      9.605    62.918
17.0626      9.839    63.238
17.3107     10.075    63.578
17.5625     10.331    63.932
17.8180     10.623    64.257
18.0771     10.925    64.560
18.3401     11.249    64.853
18.6068     11.576    65.121
18.8775     11.912    65.401
19.1521     12.286    65.704
19.4306     12.689    66.018
19.7133     13.130    66.337
20.0000     13.633    66.614
20.2909     14.173    66.834
20.5860     14.778    66.993
20.8855     15.455    67.040
21.1893     16.170    66.969
21.4975     16.946    66.795
21.8102     17.810    66.481
22.1274     18.710    66.043
22.4492     19.654    65.535
22.7758     20.663    64.963
23.1071     21.751    64.330
23.4432     22.973    63.636
23.7841     24.368    62.858
24.1301     25.973    61.899
24.4811     27.795    60.690
24.8372     30.018    59.121
25.1984     32.570    57.084
25.5649     35.213    54.583
25.9368     38.240    51.554
26.3141     41.639    47.843
26.6968     45.291    43.444
27.0851     49.044    38.414
27.4791     52.713    32.690
27.8788     55.868    26.371
28.2843     58.258    19.662
28.6957     59.769    12.713
29.1131     60.057     5.686
29.5365     59.344    -1.261
29.9661     57.915    -7.999
30.4020     55.674   -14.379
30.8442     52.948   -20.240
31.2929     49.940   -25.622
31.7480     46.695   -30.452
32.2098     43.573   -34.629
32.6783     40.900   -38.314
33.1536     38.292   -41.580
33.6359     35.924   -44.428
34.1251     33.883   -46.986
34.6215     31.859   -49.313
35.1250     29.996   -51.354
35.6359     28.309   -53.171
36.1543     26.725   -54.776
36.6802     25.280   -56.178
37.2137     23.965   -57.417
37.7550     22.767   -58.516
38.3041     21.619   -59.467
38.8613     20.546   -60.259
39.4265     19.568   -60.923
40.0000     18.644   -61.447
40.5818     17.827   -61.825
41.1721     17.085   -62.125
41.7710     16.386   -62.364
42.3785     15.758   -62.535
42.9949     15.190   -62.667
43.6203     14.638   -62.754
44.2548     14.122   -62.795
44.8985     13.666   -62.826
45.5515     13.230   -62.834
46.2141     12.823   -62.798
46.8863     12.437   -62.765
47.5683     12.062   -62.738
48.2602     11.729   -62.700
48.9621     11.423   -62.673
49.6743     11.106   -62.655
50.3968     10.779   -62.612
51.1299     10.467   -62.520
51.8736     10.170   -62.359
52.6281      9.896   -62.138
53.3936      9.644   -61.905
54.1702      9.403   -61.676
54.9581      9.178   -61.447
55.7575      8.962   -61.234
56.5685      8.746   -61.032
57.3914      8.521   -60.786
58.2261      8.285   -60.420
59.0730      8.048   -59.894
59.9323      7.849   -59.264
60.8040      7.709   -58.651
61.6884      7.600   -58.118
62.5857      7.508   -57.722
63.4960      7.376   -57.455
64.4196      7.214   -57.201
65.3566      7.058   -56.884
66.3073      6.913   -56.480
67.2717      6.778   -56.003
68.2502      6.623   -55.419
69.2429      6.499   -54.754
70.2501      6.402   -54.125
71.2719      6.317   -53.524
72.3086      6.265   -53.022
73.3603      6.186   -52.662
74.4274      6.090   -52.348
75.5099      5.998   -52.051
76.6083      5.899   -51.730
77.7226      5.800   -51.362
78.8531      5.692   -50.946
80.0000      5.583   -50.451
81.1636      5.481   -49.883
82.3442      5.379   -49.216
83.5419      5.289   -48.446
84.7570      5.200   -47.608
85.9899      5.120   -46.696
87.2406      5.081   -45.826
88.5096      5.062   -45.105
89.7970      5.028   -44.460
91.1031      4.973   -43.804
92.4282      4.904   -43.110
93.7726      4.859   -42.406
95.1366      4.843   -41.736
96.5204      4.851   -41.184
97.9243      4.835   -40.812
99.3486      4.784   -40.508
100.794      4.730   -40.159
102.260      4.687   -39.770
103.747      4.651   -39.362
105.256      4.613   -38.956
106.787      4.566   -38.540
108.340      4.509   -38.076
109.916      4.458   -37.564
111.515      4.422   -37.048
113.137      4.398   -36.584
114.783      4.363   -36.150
116.452      4.301   -35.633
118.146      4.239   -35.001
119.865      4.177   -34.234
121.608      4.145   -33.355
123.377      4.140   -32.529
125.171      4.139   -31.872
126.992      4.138   -31.399
128.839      4.133   -31.087
130.713      4.103   -30.807
132.615      4.043   -30.385
134.543      3.981   -29.776
136.500      3.918   -28.963
138.486      3.886   -27.975
140.500      3.881   -26.985
142.544      3.880   -26.087
144.617      3.880   -25.293
146.721      3.880   -24.585
148.855      3.880   -23.930
151.020      3.880   -23.315
153.217      3.880   -22.732
155.445      3.880   -22.176
157.706      3.880   -21.643
160.000      3.880   -21.130
162.327      3.880   -20.635
164.688      3.880   -20.157
167.084      3.880   -19.693
169.514      3.880   -19.242
171.980      3.880   -18.804
174.481      3.880   -18.377
177.019      3.880   -17.961
179.594      3.880   -17.555
182.206      3.880   -17.159
184.856      3.880   -16.771
187.545      3.880   -16.392
190.273      3.880   -16.021
193.041      3.880   -15.657
195.849      3.880   -15.300
198.697      3.880   -14.949
201.587      3.880   -14.606
204.520      3.880   -14.268
207.494      3.880   -13.936
210.512      3.880   -13.609
213.574      3.880   -13.288
216.681      3.880   -12.972
219.833      3.880   -12.661
223.030      3.880   -12.354
226.274      3.880   -12.051
229.565      3.880   -11.753
232.905      3.880   -11.459
236.292      3.880   -11.169
239.729      3.880   -10.882
243.216      3.880   -10.599
246.754      3.880   -10.319
250.343      3.880   -10.043
253.984      3.880    -9.769
257.678      3.880    -9.499
261.426      3.880    -9.231
265.229      3.880    -8.966
269.087      3.880    -8.703
273.001      3.880    -8.443
276.972      3.880    -8.185
281.000      3.880    -7.929
285.088      3.880    -7.675
289.234      3.880    -7.422
293.441      3.880    -7.172
297.709      3.880    -6.923
302.040      3.880    -6.676
306.433      3.880    -6.430
310.890      3.880    -6.185
315.412      3.880    -5.941
320.000      3.880    -5.698
324.655      3.880    -5.456
329.377      3.880    -5.215
334.168      3.880    -4.974
339.028      3.880    -4.734
343.959      3.880    -4.493
348.962      3.880    -4.253
354.038      3.880    -4.012
359.188      3.880    -3.771
364.412      3.880    -3.530
369.713      3.880    -3.287
375.090      3.880    -3.044
380.546      3.880    -2.799
386.081      3.880    -2.552
391.697      3.880    -2.303
397.394      3.880    -2.052
403.175      3.880    -1.797
409.039      3.880    -1.539
414.989      3.880    -1.277
421.025      3.880    -1.009
427.149      3.880    -0.736
433.362      3.880    -0.454
439.665      3.880    -0.163
446.060      3.880     0.142
452.548      3.880     0.464
459.131      3.880     0.812
465.809      3.881     1.190
472.584      3.884     1.598
479.458      3.891     2.020
486.432      3.905     2.435
493.507      3.923     2.822
500.686      3.945     3.161
507.968      3.968     3.449
515.357      3.990     3.688
522.853      4.013     3.883
530.458      4.036     4.036
538.174      4.059     4.147
546.002      4.081     4.210
553.943      4.102     4.227
562.001      4.119     4.208
570.175      4.131     4.172
578.469      4.137     4.139
586.883      4.139     4.128
595.419      4.139     4.147
604.080      4.139     4.198
612.866      4.139     4.273
621.780      4.139     4.368
630.824      4.139     4.479
640.000      4.139     4.602
649.309      4.139     4.738
658.753      4.139     4.885
668.335      4.139     5.044
678.056      4.139     5.213
687.919      4.139     5.394
697.925      4.139     5.586
708.077      4.139     5.791
718.376      4.139     6.011
728.825      4.139     6.246
739.426      4.139     6.499
750.181      4.139     6.774
761.093      4.139     7.076
772.163      4.139     7.411
783.394      4.139     7.794
794.789      4.139     8.254
806.349      4.140     8.809
818.078      4.145     9.452
829.977      4.177    10.100
842.050      4.239    10.607
854.298      4.302    10.958
866.724      4.366    11.164
879.330      4.413    11.216
892.120      4.456    11.176
905.097      4.511    11.057
918.262      4.571    10.826
931.618      4.618    10.490
945.169      4.645    10.085
958.917      4.655     9.685
972.864      4.656     9.346
987.015      4.656     9.084
1001.37      4.656     8.885
1015.94      4.656     8.732
1030.71      4.656     8.611
1045.71      4.656     8.514
1060.92      4.656     8.438
1076.35      4.656     8.377
1092.00      4.656     8.331
1107.89      4.656     8.297
1124.00      4.656     8.274
1140.35      4.656     8.261
1156.94      4.656     8.257
1173.77      4.656     8.261
1190.84      4.656     8.272
1208.16      4.656     8.290
1225.73      4.656     8.315
1243.56      4.656     8.346
1261.65      4.656     8.384
1280.00      4.656     8.427
1298.62      4.656     8.476
1317.51      4.656     8.530
1336.67      4.656     8.590
1356.11      4.656     8.655
1375.84      4.656     8.726
1395.85      4.656     8.802
1416.15      4.656     8.884
1436.75      4.656     8.971
1457.65      4.656     9.064
1478.85      4.656     9.164
1500.36      4.656     9.270
1522.19      4.656     9.382
1544.33      4.656     9.503
1566.79      4.656     9.632
1589.58      4.656     9.771
1612.70      4.656     9.922
1636.16      4.656    10.088
1659.95      4.657    10.272
1684.10      4.658    10.475
1708.60      4.662    10.691
1733.45      4.668    10.910
1758.66      4.678    11.125
1784.24      4.689    11.326
1810.19      4.702    11.510
1836.52      4.714    11.678
1863.24      4.726    11.835
1890.34      4.739    11.982
1917.83      4.751    12.122
1945.73      4.764    12.256
1974.03      4.776    12.385
2002.74      4.788    12.509
2031.87      4.801    12.630
2061.43      4.813    12.747
2091.41      4.826    12.861
2121.83      4.838    12.973
2152.69      4.850    13.082
2184.01      4.863    13.188
2215.77      4.875    13.293
2248.00      4.888    13.396
2280.70      4.900    13.496
2313.87      4.912    13.596
2347.53      4.925    13.694
2381.68      4.937    13.790
2416.32      4.950    13.885
2451.46      4.962    13.979
2487.12      4.974    14.072
2523.30      4.987    14.164
2560.00      4.999    14.255
2597.24      5.012    14.345
2635.01      5.024    14.434
2673.34      5.036    14.523
2712.23      5.049    14.611
2751.68      5.061    14.698
2791.70      5.074    14.785
2832.31      5.086    14.871
2873.50      5.098    14.957
2915.30      5.111    15.042
2957.70      5.123    15.127
3000.72      5.135    15.211
3044.37      5.148    15.296
3088.65      5.160    15.379
3133.58      5.173    15.463
3179.16      5.185    15.546
3225.40      5.197    15.629
3272.31      5.210    15.711
3319.91      5.222    15.794
3368.20      5.235    15.875
3417.19      5.247    15.957
3466.89      5.259    16.038
3517.32      5.272    16.119
3568.48      5.284    16.199
3620.39      5.297    16.278
3673.05      5.309    16.356
3726.47      5.321    16.434
3780.67      5.334    16.510
3835.67      5.346    16.584
3891.46      5.359    16.655
3948.06      5.371    16.722
4005.49      5.383    16.784
4063.75      5.396    16.837
4122.86      5.408    16.880
4182.82      5.418    16.914
4243.66      5.426    16.946
4305.39      5.430    16.986
4368.01      5.432    17.041
4431.55      5.432    17.118
4496.01      5.432    17.220
4561.40      5.432    17.344
4627.75      5.432    17.489
4695.06      5.432    17.655
4763.35      5.432    17.842
4832.64      5.432    18.053
4902.93      5.432    18.293
4974.24      5.432    18.571
5046.60      5.432    18.908
5120.00      5.433    19.314
5194.47      5.438    19.781
5270.03      5.469    20.243
5346.68      5.530    20.580
5424.45      5.592    20.767
5503.35      5.653    20.812
5583.40      5.684    20.743
5664.61      5.690    20.674
5747.01      5.692    20.683
5830.60      5.694    20.777
5915.41      5.701    20.942
6001.45      5.715    21.141
6088.74      5.734    21.348
6177.30      5.758    21.542
6267.15      5.784    21.713
6358.31      5.810    21.859
6450.80      5.836    21.981
6544.62      5.862    22.079
6639.82      5.888    22.152
6736.40      5.911    22.202
6834.38      5.929    22.243
6933.79      5.942    22.292
7034.64      5.948    22.371
7136.96      5.950    22.498
7240.77      5.953    22.681
7346.09      5.961    22.906
7452.94      5.976    23.154
7561.35      5.998    23.401
7671.33      6.024    23.630
7782.91      6.052    23.831
7896.12      6.080    24.002
8010.97      6.108    24.144
8127.49      6.135    24.257
8245.71      6.161    24.343
8365.65      6.183    24.413
8487.33      6.197    24.482
8610.78      6.205    24.569
8736.03      6.208    24.691
8863.09      6.208    24.862
8992.01      6.208    25.086
9122.80      6.208    25.366
9255.50      6.208    25.710
9390.12      6.209    26.135
9526.70      6.211    26.654
9665.27      6.224    27.257
9805.86      6.263    27.883
9948.49      6.330    28.443
10093.2      6.425    28.850
10240.0      6.530    29.046
10388.9      6.619    29.049
10540.1      6.681    28.941
10693.4      6.713    28.814
10848.9      6.724    28.755
11006.7      6.727    28.817
11166.8      6.736    28.996
11329.2      6.759    29.243
11494.0      6.800    29.494
11661.2      6.855    29.697
11830.8      6.910    29.834
12002.9      6.951    29.935
12177.5      6.976    30.050
12354.6      6.994    30.215
12534.3      7.022    30.429
12716.6      7.069    30.656
12901.6      7.127    30.840
13089.2      7.183    30.962
13279.6      7.249    30.984
13472.8      7.297    30.935
13668.8      7.307    30.947
13867.6      7.311    31.056
14069.3      7.294    31.272
14273.9      7.304    31.616
14481.5      7.354    31.998
14692.2      7.416    32.346
14905.9      7.475    32.636
15122.7      7.535    32.855
15342.7      7.596    33.019
15565.8      7.659    33.151
15792.2      7.712    33.275
16021.9      7.749    33.417
16255.0      7.784    33.591
16491.4      7.836    33.773
16731.3      7.899    33.950
16974.7      7.961    34.122
17221.6      8.006    34.294
17472.1      8.043    34.493
17726.2      8.098    34.714
17984.0      8.166    34.937
18245.6      8.247    35.136
18511.0      8.330    35.272
18780.2      8.401    35.359
19053.4      8.471    35.429
19330.5      8.540    35.488
19611.7      8.604    35.542
19897.0      8.668    35.599
20186.4      8.733    35.657
20480.0      8.799    35.714
20777.9      8.864    35.768
21080.1      8.929    35.818
21386.7      8.995    35.865
21697.8      9.060    35.908
22013.4      9.125    35.949
22333.6      9.191    35.987
22658.4      9.256    36.023
22988.0      9.321    36.057
23322.4      9.387    36.088
23661.6      9.452    36.117
24005.8      9.517    36.144
24355.0      9.583    36.170
24709.2      9.648    36.194
25068.6      9.714    36.216
25433.2      9.779    36.237
25803.2      9.844    36.258
26178.5      9.910    36.277
26559.3      9.975    36.295
26945.6     10.040    36.312
27337.5     10.106    36.328
27735.2     10.171    36.345
28138.6     10.236    36.360
28547.9     10.302    36.376
28963.1     10.367    36.391
29384.4     10.432    36.405
29811.8     10.498    36.420
30245.4     10.563    36.436
30685.3     10.629    36.451
31131.7     10.694    36.467
31584.5     10.759    36.483
32043.9     10.825    36.500
32510.0     10.890    36.518
32982.8     10.955    36.537
33462.6     11.021    36.556
33949.3     11.086    36.578
34443.1     11.151    36.600
34944.1     11.217    36.625
35452.4     11.282    36.652
35968.0     11.347    36.681
36491.2     11.413    36.713
37022.0     11.478    36.749
37560.5     11.544    36.790
38106.8     11.608    36.832
38661.1     11.669    36.876
39223.4     11.716    36.913
39793.9     11.747    36.942
