Freq[Hz]  Imp[Ohm]  Phase[Deg]
5.00000      5.835    62.738
5.07273      5.951    62.847
5.14651      6.071    62.945
5.22137      6.196    63.032
5.29732      6.325    63.108
5.37437      6.459    63.172
5.45254      6.599    63.224
5.53185      6.743    63.263
5.61231      6.894    63.288
5.69394      7.050    63.298
5.77676      7.213    63.294
5.86079      7.382    63.273
5.94604      7.559    63.235
6.03252      7.744    63.179
6.12027      7.936    63.105
6.20929      8.138    63.010
6.29961      8.348    62.893
6.39124      8.569    62.754
6.48420      8.800    62.589
6.57851      9.042    62.399
6.67420      9.297    62.180
6.77128      9.564    61.930
6.86977      9.846    61.648
6.96969     10.142    61.330
7.07107     10.455    60.974
7.17392     10.785    60.576
7.27827     11.134    60.132
7.38413     11.503    59.640
7.49154     11.893    59.093
7.60050     12.308    58.487
7.71105     12.748    57.817
7.82321     13.215    57.075
7.93701     13.712    56.255
8.05245     14.241    55.347
8.16958     14.803    54.345
8.28841     15.403    53.235
8.40896     16.041    52.009
8.53128     16.720    50.651
8.65537     17.442    49.148
8.78126     18.208    47.484
8.90899     19.019    45.642
9.03857     19.873    43.602
9.17004     20.767    41.345
9.30342     21.696    38.850
9.43874     22.650    36.098
9.57603     23.616    33.072
9.71532     24.574    29.758
9.85663     25.499    26.148
10.0000     26.358    22.246
10.1455     27.116    18.067
10.2930     27.734    13.644
10.4427     28.175     9.023
10.5946     28.410     4.269
10.7487     28.420    -0.543
10.9051     28.202    -5.333
11.0637     27.769   -10.022
11.2246     27.148   -14.539
11.3879     26.374   -18.830
11.5535     25.487   -22.853
11.7216     24.523   -26.587
11.8921     23.519   -30.023
12.0650     22.501   -33.162
12.2405     21.492   -36.015
12.4186     20.507   -38.599
12.5992     19.558   -40.931
12.7825     18.650   -43.032
12.9684     17.788   -44.923
13.1570     16.973   -46.621
13.3484     16.205   -48.146
13.5426     15.483   -49.513
13.7395     14.805   -50.737
13.9394     14.168   -51.833
14.1421     13.569   -52.812
14.3478     13.007   -53.684
14.5565     12.479   -54.460
14.7683     11.982   -55.147
14.9831     11.515   -55.752
15.2010     11.074   -56.283
15.4221     10.658   -56.745
15.6464     10.264   -57.143
15.8740      9.892   -57.481
16.1049      9.540   -57.764
16.3392      9.206   -57.993
16.5768      8.888   -58.173
16.8179      8.586   -58.305
17.0626      8.298   -58.392
17.3107      8.024   -58.436
17.5625      7.762   -58.437
17.8180      7.512   -58.397
18.0771      7.272   -58.317
18.3401      7.042   -58.198
18.6068      6.822   -58.038
18.8775      6.610   -57.839
19.1521      6.407   -57.601
19.4306      6.211   -57.322
19.7133      6.023   -57.003
20.0000      5.841   -56.641
20.2909      5.665   -56.236
20.5860      5.495   -55.786
20.8855      5.331   -55.289
21.1893      5.173   -54.743
21.4975      5.019   -54.144
21.8102      4.870   -53.490
22.1274      4.726   -52.777
22.4492      4.586   -52.002
22.7758      4.451   -51.158
23.1071      4.319   -50.240
23.4432      4.192   -49.244
23.7841      4.069   -48.161
24.1301      3.949   -46.984
24.4811      3.834   -45.704
24.8372      3.724   -44.312
25.1984      3.617   -42.798
25.5649      3.516   -41.149
25.9368      3.419   -39.354
26.3141      3.328   -37.400
26.6968      3.243   -35.273
27.0851      3.165   -32.961
27.4791      3.096   -30.452
27.8788      3.035   -27.735
28.2843      2.985   -24.806
28.6957      2.947   -21.663
29.1131      2.923   -18.313
29.5365      2.915   -14.775
29.9661      2.927   -11.076
30.4020      2.960    -7.259
30.8442      3.018    -3.379
31.2929      3.104     0.498
31.7480      3.222     4.296
32.2098      3.374     7.936
32.6783      3.566    11.338
33.1536      3.802    14.427
33.6359      4.087    17.132
34.1251      4.426    19.385
34.6215      4.825    21.126
35.1250      5.293    22.292
35.6359      5.837    22.815
36.1543      6.463    22.621
36.6802      7.178    21.626
37.2137      7.980    19.735
37.7550      8.860    16.851
38.3041      9.788    12.898
38.8613     10.707     7.852
39.4265     11.533     1.799
40.0000     12.163    -5.031
40.5818     12.515   -12.258
41.1721     12.556   -19.430
41.7710     12.319   -26.144
42.3785     11.881   -32.130
42.9949     11.325   -37.278
43.6203     10.722   -41.595
44.2548     10.119   -45.159
44.8985      9.544   -48.071
45.5515      9.010   -50.438
46.2141      8.521   -52.354
46.8863      8.077   -53.899
47.5683      7.675   -55.140
48.2602      7.311   -56.131
48.9621      6.982   -56.917
49.6743      6.683   -57.533
50.3968      6.411   -58.006
51.1299      6.163   -58.361
51.8736      5.936   -58.615
52.6281      5.727   -58.784
53.3936      5.535   -58.881
54.1702      5.357   -58.916
54.9581      5.193   -58.897
55.7575      5.040   -58.833
56.5685      4.897   -58.727
57.3914      4.764   -58.587
58.2261      4.639   -58.416
59.0730      4.521   -58.218
59.9323      4.411   -57.995
60.8040      4.307   -57.752
61.6884      4.209   -57.489
62.5857      4.116   -57.208
63.4960      4.028   -56.913
64.4196      3.944   -56.603
65.3566      3.864   -56.281
66.3073      3.789   -55.948
67.2717      3.717   -55.604
68.2502      3.648   -55.251
69.2429      3.582   -54.889
70.2501      3.519   -54.519
71.2719      3.459   -54.141
72.3086      3.401   -53.757
73.3603      3.346   -53.367
74.4274      3.292   -52.971
75.5099      3.241   -52.570
76.6083      3.192   -52.163
77.7226      3.145   -51.752
78.8531      3.099   -51.337
80.0000      3.056   -50.918
81.1636      3.013   -50.496
82.3442      2.973   -50.070
83.5419      2.933   -49.640
84.7570      2.895   -49.208
85.9899      2.858   -48.773
87.2406      2.823   -48.336
88.5096      2.789   -47.896
89.7970      2.756   -47.454
91.1031      2.723   -47.011
92.4282      2.692   -46.565
93.7726      2.662   -46.118
95.1366      2.633   -45.669
96.5204      2.605   -45.219
97.9243      2.577   -44.768
99.3486      2.551   -44.315
100.794      2.525   -43.862
102.260      2.500   -43.408
103.747      2.476   -42.953
105.256      2.453   -42.497
106.787      2.430   -42.041
108.340      2.408   -41.585
109.916      2.386   -41.128
111.515      2.365   -40.671
113.137      2.345   -40.215
114.783      2.326   -39.758
116.452      2.307   -39.301
118.146      2.288   -38.845
119.865      2.270   -38.388
121.608      2.253   -37.933
123.377      2.236   -37.477
125.171      2.219   -37.023
126.992      2.203   -36.569
128.839      2.187   -36.115
130.713      2.172   -35.663
132.615      2.158   -35.211
134.543      2.143   -34.761
136.500      2.129   -34.311
138.486      2.116   -33.863
140.500      2.103   -33.415
142.544      2.090   -32.969
144.617      2.078   -32.524
146.721      2.065   -32.081
148.855      2.054   -31.639
151.020      2.042   -31.198
153.217      2.031   -30.759
155.445      2.020   -30.321
157.706      2.010   -29.885
160.000      2.000   -29.451
162.327      1.990   -29.018
164.688      1.980   -28.587
167.084      1.971   -28.158
169.514      1.962   -27.730
171.980      1.953   -27.305
174.481      1.944   -26.881
177.019      1.936   -26.459
179.594      1.928   -26.039
182.206      1.920   -25.621
184.856      1.912   -25.205
187.545      1.905   -24.791
190.273      1.898   -24.379
193.041      1.891   -23.968
195.849      1.884   -23.560
198.697      1.877   -23.154
201.587      1.871   -22.750
204.520      1.865   -22.348
207.494      1.858   -21.948
210.512      1.853   -21.551
213.574      1.847   -21.155
216.681      1.841   -20.761
219.833      1.836   -20.369
223.030      1.831   -19.980
226.274      1.826   -19.592
229.565      1.821   -19.207
232.905      1.816   -18.823
236.292      1.811   -18.442
239.729      1.807   -18.063
243.216      1.802   -17.685
246.754      1.798   -17.310
250.343      1.794   -16.936
253.984      1.790   -16.565
257.678      1.786   -16.195
261.426      1.782   -15.828
265.229      1.779   -15.462
269.087      1.775   -15.098
273.001      1.772   -14.736
276.972      1.768   -14.376
281.000      1.765   -14.018
285.088      1.762   -13.661
289.234      1.759   -13.306
293.441      1.756   -12.953
297.709      1.753   -12.601
302.040      1.751   -12.251
306.433      1.748   -11.903
310.890      1.746   -11.557
315.412      1.743   -11.211
320.000      1.741   -10.868
324.655      1.739   -10.526
329.377      1.737   -10.185
334.168      1.734    -9.846
339.028      1.732    -9.508
343.959      1.730    -9.171
348.962      1.729    -8.836
354.038      1.727    -8.502
359.188      1.725    -8.169
364.412      1.724    -7.837
369.713      1.722    -7.507
375.090      1.721    -7.177
380.546      1.719    -6.849
386.081      1.718    -6.521
391.697      1.716    -6.195
397.394      1.715    -5.869
403.175      1.714    -5.544
409.039      1.713    -5.220
414.989      1.712    -4.897
421.025      1.711    -4.575
427.149      1.710    -4.253
433.362      1.709    -3.932
439.665      1.708    -3.612
446.060      1.708    -3.292
452.548      1.707    -2.972
459.131      1.706    -2.653
465.809      1.706    -2.335
472.584      1.705    -2.016
479.458      1.705    -1.699
486.432      1.705    -1.381
493.507      1.704    -1.063
500.686      1.704    -0.746
507.968      1.704    -0.429
515.357      1.704    -0.112
522.853      1.704     0.205
530.458      1.704     0.522
538.174      1.704     0.839
546.002      1.704     1.156
553.943      1.704     1.474
562.001      1.704     1.791
570.175      1.704     2.109
578.469      1.704     2.427
586.883      1.705     2.746
595.419      1.705     3.065
604.080      1.706     3.384
612.866      1.706     3.704
621.780      1.707     4.024
630.824      1.707     4.345
640.000      1.708     4.667
649.309      1.709     4.989
658.753      1.710     5.312
668.335      1.710     5.635
678.056      1.711     5.960
687.919      1.712     6.285
697.925      1.713     6.611
708.077      1.715     6.939
718.376      1.716     7.267
728.825      1.717     7.596
739.426      1.718     7.926
750.181      1.720     8.257
761.093      1.721     8.590
772.163      1.722     8.923
783.394      1.724     9.258
794.789      1.726     9.594
806.349      1.727     9.931
818.078      1.729    10.270
829.977      1.731    10.610
842.050      1.733    10.951
854.298      1.735    11.294
866.724      1.737    11.639
879.330      1.739    11.985
892.120      1.741    12.332
905.097      1.744    12.681
918.262      1.746    13.031
931.618      1.749    13.384
945.169      1.751    13.737
958.917      1.754    14.093
972.864      1.757    14.450
987.015      1.759    14.809
1001.37      1.762    15.170
1015.94      1.765    15.532
1030.71      1.769    15.896
1045.71      1.772    16.262
1060.92      1.775    16.630
1076.35      1.779    17.000
1092.00      1.782    17.372
1107.89      1.786    17.745
1124.00      1.790    18.121
1140.35      1.793    18.498
1156.94      1.797    18.877
1173.77      1.802    19.259
1190.84      1.806    19.642
1208.16      1.810    20.027
1225.73      1.815    20.414
1243.56      1.819    20.803
1261.65      1.824    21.194
1280.00      1.829    21.587
1298.62      1.834    21.981
1317.51      1.839    22.378
1336.67      1.844    22.777
1356.11      1.850    23.177
1375.84      1.855    23.580
1395.85      1.861    23.984
1416.15      1.867    24.391
1436.75      1.873    24.799
1457.65      1.879    25.209
1478.85      1.886    25.621
1500.36      1.892    26.034
1522.19      1.899    26.450
1544.33      1.906    26.867
1566.79      1.913    27.286
1589.58      1.921    27.707
1612.70      1.928    28.129
1636.16      1.936    28.553
1659.95      1.944    28.978
1684.10      1.952    29.405
1708.60      1.960    29.834
1733.45      1.969    30.264
1758.66      1.977    30.695
1784.24      1.986    31.128
1810.19      1.995    31.562
1836.52      2.005    31.998
1863.24      2.015    32.434
1890.34      2.024    32.872
1917.83      2.035    33.311
1945.73      2.045    33.751
1974.03      2.056    34.192
2002.74      2.066    34.634
2031.87      2.078    35.077
2061.43      2.089    35.520
2091.41      2.101    35.965
2121.83      2.113    36.410
2152.69      2.125    36.855
2184.01      2.137    37.301
2215.77      2.150    37.748
2248.00      2.163    38.195
2280.70      2.177    38.642
2313.87      2.191    39.090
2347.53      2.205    39.537
2381.68      2.219    39.985
2416.32      2.234    40.433
2451.46      2.249    40.881
2487.12      2.264    41.328
2523.30      2.280    41.776
2560.00      2.296    42.223
2597.24      2.312    42.669
2635.01      2.329    43.115
2673.34      2.346    43.561
2712.23      2.364    44.006
2751.68      2.382    44.451
2791.70      2.400    44.894
2832.31      2.419    45.337
2873.50      2.438    45.779
2915.30      2.457    46.219
2957.70      2.477    46.659
3000.72      2.497    47.098
3044.37      2.518    47.535
3088.65      2.539    47.971
3133.58      2.561    48.405
3179.16      2.583    48.839
3225.40      2.606    49.270
3272.31      2.629    49.700
3319.91      2.652    50.128
3368.20      2.676    50.555
3417.19      2.700    50.979
3466.89      2.725    51.402
3517.32      2.751    51.823
3568.48      2.776    52.242
3620.39      2.803    52.659
3673.05      2.830    53.073
3726.47      2.857    53.486
3780.67      2.885    53.896
3835.67      2.914    54.303
3891.46      2.943    54.709
3948.06      2.972    55.112
4005.49      3.002    55.512
4063.75      3.033    55.910
4122.86      3.064    56.306
4182.82      3.096    56.699
4243.66      3.129    57.089
4305.39      3.162    57.476
4368.01      3.196    57.861
4431.55      3.230    58.243
4496.01      3.265    58.622
4561.40      3.301    58.998
4627.75      3.337    59.372
4695.06      3.374    59.742
4763.35      3.411    60.110
4832.64      3.450    60.474
4902.93      3.489    60.836
4974.24      3.528    61.194
5046.60      3.569    61.550
5120.00      3.610    61.902
5194.47      3.651    62.251
5270.03      3.694    62.598
5346.68      3.737    62.941
5424.45      3.781    63.281
5503.35      3.826    63.617
5583.40      3.871    63.951
5664.61      3.918    64.282
5747.01      3.965    64.609
5830.60      4.013    64.933
5915.41      4.061    65.254
6001.45      4.111    65.572
6088.74      4.161    65.887
6177.30      4.212    66.198
6267.15      4.264    66.506
6358.31      4.317    66.811
6450.80      4.371    67.113
6544.62      4.426    67.412
6639.82      4.482    67.707
6736.40      4.538    68.000
6834.38      4.596    68.289
6933.79      4.654    68.575
7034.64      4.713    68.858
7136.96      4.774    69.138
7240.77      4.835    69.414
7346.09      4.897    69.688
7452.94      4.961    69.959
7561.35      5.025    70.226
7671.33      5.090    70.490
7782.91      5.157    70.752
7896.12      5.224    71.010
8010.97      5.293    71.265
8127.49      5.363    71.518
8245.71      5.433    71.767
8365.65      5.505    72.013
8487.33      5.578    72.257
8610.78      5.652    72.497
8736.03      5.728    72.735
8863.09      5.804    72.969
8992.01      5.882    73.201
9122.80      5.961    73.430
9255.50      6.041    73.656
9390.12      6.123    73.880
9526.70      6.206    74.101
9665.27      6.290    74.318
9805.86      6.375    74.534
9948.49      6.462    74.746
10093.2      6.550    74.956
10240.0      6.639    75.163
10388.9      6.730    75.368
10540.1      6.822    75.570
10693.4      6.915    75.769
10848.9      7.010    75.966
11006.7      7.107    76.160
11166.8      7.205    76.352
11329.2      7.304    76.541
11494.0      7.405    76.728
11661.2      7.508    76.912
11830.8      7.612    77.094
12002.9      7.717    77.274
12177.5      7.824    77.451
12354.6      7.933    77.626
12534.3      8.044    77.799
12716.6      8.156    77.969
12901.6      8.270    78.137
13089.2      8.386    78.303
13279.6      8.503    78.467
13472.8      8.622    78.628
13668.8      8.743    78.788
13867.6      8.866    78.945
14069.3      8.990    79.100
14273.9      9.117    79.253
14481.5      9.245    79.404
14692.2      9.375    79.553
14905.9      9.508    79.700
15122.7      9.642    79.845
15342.7      9.778    79.988
15565.8      9.916    80.129
15792.2     10.057    80.268
16021.9     10.199    80.405
16255.0     10.344    80.540
16491.4     10.490    80.674
16731.3     10.639    80.806
16974.7     10.790    80.935
17221.6     10.944    81.063
17472.1     11.099    81.190
17726.2     11.257    81.314
17984.0     11.418    81.437
18245.6     11.580    81.558
18511.0     11.745    81.678
18780.2     11.913    81.796
19053.4     12.083    81.912
19330.5     12.256    82.027
19611.7     12.431    82.140
19897.0     12.608    82.251
20186.4     12.789    82.361
20480.0     12.972    82.469
20777.9     13.157    82.576
21080.1     13.346    82.682
21386.7     13.537    82.786
21697.8     13.731    82.888
22013.4     13.928    82.989
22333.6     14.128    83.089
22658.4     14.330    83.187
22988.0     14.536    83.284
23322.4     14.745    83.379
23661.6     14.957    83.474
24005.8     15.172    83.567
24355.0     15.390    83.658
24709.2     15.611    83.748
25068.6     15.836    83.837
25433.2     16.064    83.925
25803.2     16.295    84.012
26178.5     16.530    84.097
26559.3     16.768    84.181
26945.6     17.009    84.264
27337.5     17.254    84.346
27735.2     17.503    84.426
28138.6     17.756    84.506
28547.9     18.012    84.584
28963.1     18.272    84.661
29384.4     18.535    84.738
29811.8     18.803    84.813
30245.4     19.074    84.887
30685.3     19.350    84.960
31131.7     19.629    85.032
31584.5     19.912    85.102
32043.9     20.200    85.172
32510.0     20.492    85.241
32982.8     20.788    85.309
33462.6     21.089    85.376
33949.3     21.394    85.442
34443.1     21.703    85.507
34944.1     22.017    85.572
35452.4     22.335    85.635
35968.0     22.659    85.697
36491.2     22.986    85.759
37022.0     23.319    85.819
37560.5     23.657    85.879
38106.8     23.999    85.938
38661.1     24.347    85.996
39223.4     24.699    86.053
39793.9     25.057    86.110
