Freq[Hz]     dBSPL  Phase[Deg]
5.00000     36.033  -119.665
5.07273     36.377  -119.577
5.14651     36.721  -119.488
5.22137     37.066  -119.400
5.29732     37.412  -119.311
5.37437     37.759  -119.223
5.45254     38.106  -119.136
5.53185     38.454  -119.049
5.61231     38.803  -118.963
5.69394     39.153  -118.878
5.77676     39.503  -118.794
5.86079     39.854  -118.710
5.94604     40.206  -118.628
6.03252     40.558  -118.547
6.12027     40.912  -118.467
6.20929     41.266  -118.389
6.29961     41.621  -118.312
6.39124     41.976  -118.237
6.48420     42.333  -118.164
6.57851     42.690  -118.093
6.67420     43.048  -118.023
6.77128     43.407  -117.956
6.86977     43.767  -117.891
6.96969     44.127  -117.828
7.07107     44.489  -117.768
7.17392     44.851  -117.710
7.27827     45.214  -117.655
7.38413     45.578  -117.602
7.49154     45.943  -117.553
7.60050     46.309  -117.506
7.71105     46.675  -117.463
7.82321     47.043  -117.422
7.93701     47.411  -117.385
8.05245     47.781  -117.351
8.16958     48.151  -117.321
8.28841     48.522  -117.295
8.40896     48.894  -117.272
8.53128     49.267  -117.253
8.65537     49.641  -117.238
8.78126     50.016  -117.227
8.90899     50.392  -117.220
9.03857     50.770  -117.217
9.17004     51.148  -117.219
9.30342     51.527  -117.226
9.43874     51.907  -117.237
9.57603     52.288  -117.253
9.71532     52.670  -117.273
9.85663     53.054  -117.299
10.0000     53.438  -117.330
10.1455     53.824  -117.366
10.2930     54.211  -117.408
10.4427     54.599  -117.455
10.5946     54.988  -117.508
10.7487     55.378  -117.567
10.9051     55.770  -117.632
11.0637     56.163  -117.703
11.2246     56.557  -117.781
11.3879     56.953  -117.865
11.5535     57.350  -117.955
11.7216     57.748  -118.053
11.8921     58.148  -118.157
12.0650     58.549  -118.269
12.2405     58.952  -118.389
12.4186     59.357  -118.516
12.5992     59.762  -118.651
12.7825     60.170  -118.795
12.9684     60.579  -118.946
13.1570     60.990  -119.107
13.3484     61.403  -119.277
13.5426     61.817  -119.456
13.7395     62.234  -119.644
13.9394     62.652  -119.843
14.1421     63.073  -120.052
14.3478     63.495  -120.271
14.5565     63.920  -120.502
14.7683     64.346  -120.745
14.9831     64.776  -120.999
15.2010     65.207  -121.266
15.4221     65.641  -121.547
15.6464     66.077  -121.840
15.8740     66.516  -122.148
16.1049     66.958  -122.471
16.3392     67.403  -122.810
16.5768     67.850  -123.165
16.8179     68.301  -123.537
17.0626     68.754  -123.928
17.3107     69.211  -124.337
17.5625     69.672  -124.767
17.8180     70.136  -125.218
18.0771     70.603  -125.691
18.3401     71.075  -126.189
18.6068     71.550  -126.711
18.8775     72.030  -127.261
19.1521     72.514  -127.839
19.4306     73.003  -128.448
19.7133     73.496  -129.090
20.0000     73.994  -129.766
20.2909     74.497  -130.481
20.5860     75.005  -131.236
20.8855     75.519  -132.034
21.1893     76.039  -132.880
21.4975     76.564  -133.776
21.8102     77.096  -134.728
22.1274     77.633  -135.740
22.4492     78.177  -136.817
22.7758     78.728  -137.965
23.1071     79.285  -139.192
23.4432     79.849  -140.503
23.7841     80.419  -141.907
24.1301     80.996  -143.414
24.4811     81.580  -145.032
24.8372     82.169  -146.774
25.1984     82.763  -148.652
25.5649     83.362  -150.678
25.9368     83.965  -152.868
26.3141     84.569  -155.235
26.6968     85.173  -157.797
27.0851     85.774  -160.568
27.4791     86.369  -163.564
27.8788     86.954  -166.799
28.2843     87.524  -170.284
28.6957     88.073  -174.022
29.1131     88.595  -178.015
29.5365     89.084   177.749
29.9661     89.532   173.291
30.4020     89.932   168.643
30.8442     90.279   163.851
31.2929     90.569   158.969
31.7480     90.800   154.058
32.2098     90.971   149.181
32.6783     91.086   144.399
33.1536     91.149   139.765
33.6359     91.166   135.321
34.1251     91.143   131.097
34.6215     91.088   127.111
35.1250     91.007   123.373
35.6359     90.907   119.881
36.1543     90.792   116.629
36.6802     90.669   113.605
37.2137     90.540   110.796
37.7550     90.408   108.185
38.3041     90.277   105.758
38.8613     90.147   103.498
39.4265     90.021   101.390
40.0000     89.899    99.421
40.5818     89.782    97.578
41.1721     89.671    95.847
41.7710     89.566    94.220
42.3785     89.467    92.685
42.9949     89.375    91.234
43.6203     89.289    89.859
44.2548     89.209    88.554
44.8985     89.135    87.311
45.5515     89.067    86.124
46.2141     89.004    84.990
46.8863     88.948    83.903
47.5683     88.896    82.858
48.2602     88.850    81.853
48.9621     88.808    80.884
49.6743     88.772    79.948
50.3968     88.739    79.042
51.1299     88.711    78.163
51.8736     88.687    77.310
52.6281     88.667    76.481
53.3936     88.651    75.673
54.1702     88.638    74.884
54.9581     88.628    74.115
55.7575     88.622    73.362
56.5685     88.618    72.624
57.3914     88.617    71.902
58.2261     88.619    71.192
59.0730     88.624    70.496
59.9323     88.630    69.811
60.8040     88.639    69.136
61.6884     88.651    68.472
62.5857     88.664    67.817
63.4960     88.679    67.171
64.4196     88.695    66.534
65.3566     88.714    65.904
66.3073     88.734    65.281
67.2717     88.755    64.664
68.2502     88.778    64.055
69.2429     88.802    63.451
70.2501     88.827    62.853
71.2719     88.853    62.260
72.3086     88.880    61.672
73.3603     88.908    61.089
74.4274     88.937    60.510
75.5099     88.967    59.936
76.6083     88.998    59.366
77.7226     89.029    58.800
78.8531     89.061    58.237
80.0000     89.093    57.678
81.1636     89.126    57.123
82.3442     89.160    56.571
83.5419     89.193    56.022
84.7570     89.227    55.477
85.9899     89.262    54.934
87.2406     89.296    54.395
88.5096     89.331    53.858
89.7970     89.366    53.325
91.1031     89.401    52.794
92.4282     89.436    52.266
93.7726     89.472    51.740
95.1366     89.507    51.218
96.5204     89.542    50.698
97.9243     89.578    50.180
99.3486     89.613    49.666
100.794     89.648    49.154
102.260     89.683    48.644
103.747     89.718    48.138
105.256     89.752    47.634
106.787     89.787    47.132
108.340     89.821    46.633
109.916     89.855    46.137
111.515     89.889    45.644
113.137     89.923    45.154
114.783     89.956    44.666
116.452     89.989    44.181
118.146     90.021    43.698
119.865     90.054    43.219
121.608     90.086    42.742
123.377     90.117    42.268
125.171     90.149    41.797
126.992     90.179    41.329
128.839     90.210    40.864
130.713     90.240    40.402
132.615     90.270    39.943
134.543     90.299    39.487
136.500     90.328    39.034
138.486     90.357    38.584
140.500     90.385    38.138
142.544     90.413    37.694
144.617     90.440    37.254
146.721     90.467    36.816
148.855     90.493    36.383
151.020     90.519    35.952
153.217     90.545    35.524
155.445     90.570    35.100
157.706     90.595    34.680
160.000     90.619    34.262
162.327     90.643    33.848
164.688     90.666    33.438
167.084     90.689    33.030
169.514     90.712    32.627
171.980     90.734    32.226
174.481     90.756    31.829
177.019     90.777    31.436
179.594     90.798    31.046
182.206     90.819    30.660
184.856     90.839    30.277
187.545     90.859    29.898
190.273     90.878    29.522
193.041     90.897    29.150
195.849     90.915    28.781
198.697     90.933    28.416
201.587     90.951    28.054
204.520     90.969    27.696
207.494     90.986    27.341
210.512     91.002    26.990
213.574     91.019    26.643
216.681     91.034    26.299
219.833     91.050    25.959
223.030     91.065    25.622
226.274     91.080    25.289
229.565     91.095    24.959
232.905     91.109    24.633
236.292     91.123    24.310
239.729     91.136    23.991
243.216     91.150    23.675
246.754     91.163    23.362
250.343     91.175    23.054
253.984     91.188    22.748
257.678     91.200    22.446
261.426     91.211    22.148
265.229     91.223    21.852
269.087     91.234    21.561
273.001     91.245    21.272
276.972     91.256    20.987
281.000     91.266    20.705
285.088     91.276    20.427
289.234     91.286    20.152
293.441     91.296    19.880
297.709     91.305    19.611
302.040     91.314    19.346
306.433     91.323    19.083
310.890     91.332    18.824
315.412     91.341    18.568
320.000     91.349    18.315
324.655     91.357    18.066
329.377     91.365    17.819
334.168     91.373    17.575
339.028     91.380    17.335
343.959     91.387    17.097
348.962     91.394    16.862
354.038     91.401    16.631
359.188     91.408    16.402
364.412     91.415    16.176
369.713     91.421    15.953
375.090     91.427    15.733
380.546     91.433    15.515
386.081     91.439    15.301
391.697     91.445    15.089
397.394     91.451    14.880
403.175     91.456    14.674
409.039     91.461    14.470
414.989     91.466    14.269
421.025     91.471    14.070
427.149     91.476    13.875
433.362     91.481    13.681
439.665     91.486    13.491
446.060     91.490    13.302
452.548     91.495    13.117
459.131     91.499    12.933
465.809     91.503    12.752
472.584     91.507    12.574
479.458     91.511    12.398
486.432     91.515    12.224
493.507     91.519    12.053
500.686     91.522    11.884
507.968     91.526    11.717
515.357     91.529    11.552
522.853     91.533    11.390
530.458     91.536    11.230
538.174     91.539    11.072
546.002     91.542    10.916
553.943     91.545    10.762
562.001     91.548    10.611
570.175     91.551    10.461
578.469     91.553    10.314
586.883     91.556    10.168
595.419     91.559    10.025
604.080     91.561     9.883
612.866     91.564     9.743
621.780     91.566     9.606
630.824     91.568     9.470
640.000     91.571     9.336
649.309     91.573     9.204
658.753     91.575     9.073
668.335     91.577     8.945
678.056     91.579     8.818
687.919     91.581     8.693
697.925     91.583     8.570
708.077     91.585     8.449
718.376     91.587     8.329
728.825     91.588     8.211
739.426     91.590     8.094
750.181     91.592     7.979
761.093     91.593     7.866
772.163     91.595     7.754
783.394     91.596     7.644
794.789     91.598     7.535
806.349     91.599     7.428
818.078     91.601     7.323
829.977     91.602     7.218
842.050     91.603     7.116
854.298     91.605     7.014
866.724     91.606     6.915
879.330     91.607     6.816
892.120     91.608     6.719
905.097     91.609     6.623
918.262     91.611     6.529
931.618     91.612     6.436
945.169     91.613     6.344
958.917     91.614     6.254
972.864     91.615     6.165
987.015     91.616     6.077
1001.37     91.617     5.990
1015.94     91.618     5.905
1030.71     91.618     5.821
1045.71     91.619     5.738
1060.92     91.620     5.656
1076.35     91.621     5.575
1092.00     91.622     5.496
1107.89     91.622     5.417
1124.00     91.623     5.340
1140.35     91.624     5.264
1156.94     91.625     5.188
1173.77     91.625     5.114
1190.84     91.626     5.041
1208.16     91.627     4.969
1225.73     91.627     4.898
1243.56     91.628     4.828
1261.65     91.629     4.759
1280.00     91.629     4.691
1298.62     91.630     4.624
1317.51     91.630     4.558
1336.67     91.631     4.493
1356.11     91.631     4.429
1375.84     91.632     4.366
1395.85     91.632     4.303
1416.15     91.633     4.242
1436.75     91.633     4.181
1457.65     91.634     4.121
1478.85     91.634     4.062
1500.36     91.634     4.004
1522.19     91.635     3.947
1544.33     91.635     3.890
1566.79     91.636     3.835
1589.58     91.636     3.780
1612.70     91.636     3.726
1636.16     91.637     3.673
1659.95     91.637     3.620
1684.10     91.637     3.568
1708.60     91.638     3.517
1733.45     91.638     3.467
1758.66     91.638     3.417
1784.24     91.639     3.368
1810.19     91.639     3.320
1836.52     91.639     3.273
1863.24     91.640     3.226
1890.34     91.640     3.180
1917.83     91.640     3.134
1945.73     91.640     3.089
1974.03     91.641     3.045
2002.74     91.641     3.001
2031.87     91.641     2.958
2061.43     91.641     2.916
2091.41     91.641     2.874
2121.83     91.642     2.833
2152.69     91.642     2.793
2184.01     91.642     2.753
2215.77     91.642     2.713
2248.00     91.642     2.674
2280.70     91.643     2.636
2313.87     91.643     2.598
2347.53     91.643     2.561
2381.68     91.643     2.524
2416.32     91.643     2.488
2451.46     91.643     2.453
2487.12     91.644     2.417
2523.30     91.644     2.383
2560.00     91.644     2.349
2597.24     91.644     2.315
2635.01     91.644     2.282
2673.34     91.644     2.249
2712.23     91.644     2.217
2751.68     91.645     2.185
2791.70     91.645     2.154
2832.31     91.645     2.123
2873.50     91.645     2.093
2915.30     91.645     2.063
2957.70     91.645     2.033
3000.72     91.645     2.004
3044.37     91.645     1.975
3088.65     91.645     1.947
3133.58     91.646     1.919
3179.16     91.646     1.892
3225.40     91.646     1.864
3272.31     91.646     1.838
3319.91     91.646     1.811
3368.20     91.646     1.785
3417.19     91.646     1.760
3466.89     91.646     1.735
3517.32     91.646     1.710
3568.48     91.646     1.685
3620.39     91.646     1.661
3673.05     91.646     1.637
3726.47     91.647     1.614
3780.67     91.647     1.591
3835.67     91.647     1.568
3891.46     91.647     1.545
3948.06     91.647     1.523
4005.49     91.647     1.501
4063.75     91.647     1.480
4122.86     91.647     1.459
4182.82     91.647     1.438
4243.66     91.647     1.417
4305.39     91.647     1.397
4368.01     91.647     1.377
4431.55     91.647     1.357
4496.01     91.647     1.338
4561.40     91.647     1.319
4627.75     91.647     1.300
4695.06     91.647     1.281
4763.35     91.647     1.263
4832.64     91.647     1.245
4902.93     91.647     1.227
4974.24     91.648     1.209
5046.60     91.648     1.192
5120.00     91.648     1.175
5194.47     91.648     1.158
5270.03     91.648     1.141
5346.68     91.648     1.125
5424.45     91.648     1.109
5503.35     91.648     1.093
5583.40     91.648     1.077
5664.61     91.648     1.062
5747.01     91.648     1.047
5830.60     91.648     1.032
5915.41     91.648     1.017
6001.45     91.648     1.002
6088.74     91.648     0.988
6177.30     91.648     0.974
6267.15     91.648     0.960
6358.31     91.648     0.946
6450.80     91.648     0.932
6544.62     91.648     0.919
6639.82     91.648     0.906
6736.40     91.648     0.893
6834.38     91.648     0.880
6933.79     91.648     0.867
7034.64     91.648     0.855
7136.96     91.648     0.843
7240.77     91.648     0.831
7346.09     91.648     0.819
7452.94     91.648     0.807
7561.35     91.648     0.795
7671.33     91.648     0.784
7782.91     91.648     0.773
7896.12     91.648     0.762
8010.97     91.648     0.751
8127.49     91.648     0.740
8245.71     91.648     0.729
8365.65     91.648     0.719
8487.33     91.648     0.709
8610.78     91.648     0.699
8736.03     91.648     0.689
8863.09     91.648     0.679
8992.01     91.648     0.669
9122.80     91.648     0.659
9255.50     91.648     0.650
9390.12     91.648     0.641
9526.70     91.648     0.631
9665.27     91.648     0.622
9805.86     91.649     0.613
9948.49     91.649     0.605
10093.2     91.649     0.596
10240.0     91.649     0.587
10388.9     91.649     0.579
10540.1     91.649     0.571
10693.4     91.649     0.562
10848.9     91.649     0.554
11006.7     91.649     0.546
11166.8     91.649     0.539
11329.2     91.649     0.531
11494.0     91.649     0.523
11661.2     91.649     0.516
11830.8     91.649     0.508
12002.9     91.649     0.501
12177.5     91.649     0.494
12354.6     91.649     0.487
12534.3     91.649     0.480
12716.6     91.649     0.473
12901.6     91.649     0.466
13089.2     91.649     0.460
13279.6     91.649     0.453
13472.8     91.649     0.446
13668.8     91.649     0.440
13867.6     91.649     0.434
14069.3     91.649     0.428
14273.9     91.649     0.421
14481.5     91.649     0.415
14692.2     91.649     0.409
14905.9     91.649     0.404
15122.7     91.649     0.398
15342.7     91.649     0.392
15565.8     91.649     0.386
15792.2     91.649     0.381
16021.9     91.649     0.375
16255.0     91.649     0.370
16491.4     91.649     0.365
16731.3     91.649     0.360
16974.7     91.649     0.354
17221.6     91.649     0.349
17472.1     91.649     0.344
17726.2     91.649     0.339
17984.0     91.649     0.334
18245.6     91.649     0.330
18511.0     91.649     0.325
18780.2     91.649     0.320
19053.4     91.649     0.316
19330.5     91.649     0.311
19611.7     91.649     0.307
19897.0     91.649     0.302
20186.4     91.649     0.298
20480.0     91.649     0.294
20777.9     91.649     0.289
21080.1     91.649     0.285
21386.7     91.649     0.281
21697.8     91.649     0.277
22013.4     91.649     0.273
22333.6     91.649     0.269
22658.4     91.649     0.265
22988.0     91.649     0.262
23322.4     91.649     0.258
23661.6     91.649     0.254
24005.8     91.649     0.251
24355.0     91.649     0.247
24709.2     91.649     0.243
25068.6     91.649     0.240
25433.2     91.649     0.237
25803.2     91.649     0.233
26178.5     91.649     0.230
26559.3     91.649     0.226
26945.6     91.649     0.223
27337.5     91.649     0.220
27735.2     91.649     0.217
28138.6     91.649     0.214
28547.9     91.649     0.211
28963.1     91.649     0.208
29384.4     91.649     0.205
29811.8     91.649     0.202
30245.4     91.649     0.199
30685.3     91.649     0.196
31131.7     91.649     0.193
31584.5     91.649     0.190
32043.9     91.649     0.188
32510.0     91.649     0.185
32982.8     91.649     0.182
33462.6     91.649     0.180
33949.3     91.649     0.177
34443.1     91.649     0.175
34944.1     91.649     0.172
35452.4     91.649     0.170
35968.0     91.649     0.167
36491.2     91.649     0.165
37022.0     91.649     0.162
37560.5     91.649     0.160
38106.8     91.649     0.158
38661.1     91.649     0.156
39223.4     91.649     0.153
39793.9     91.649     0.151
