Freq[Hz]     dBSPL  Phase[Deg]
5.00000     -2.939  -164.623
5.07273     -2.838  -164.633
5.14651     -2.680  -164.646
5.22137     -2.456  -164.661
5.29732     -2.201  -164.676
5.37437     -1.932  -164.691
5.45254     -1.660  -164.703
5.53185     -1.387  -164.714
5.61231     -1.115  -164.723
5.69394     -0.842  -164.732
5.77676     -0.569  -164.740
5.86079     -0.297  -164.749
5.94604     -0.024  -164.757
6.03252      0.248  -164.764
6.12027      0.521  -164.772
6.20929      0.794  -164.780
6.29961      1.067  -164.787
6.39124      1.339  -164.794
6.48420      1.612  -164.802
6.57851      1.885  -164.809
6.67420      2.157  -164.816
6.77128      2.430  -164.823
6.86977      2.703  -164.829
6.96969      2.976  -164.836
7.07107      3.248  -164.843
7.17392      3.521  -164.850
7.27827      3.794  -164.857
7.38413      4.066  -164.864
7.49154      4.339  -164.871
7.60050      4.612  -164.877
7.71105      4.885  -164.884
7.82321      5.158  -164.890
7.93701      5.430  -164.897
8.05245      5.703  -164.903
8.16958      5.976  -164.910
8.28841      6.249  -164.916
8.40896      6.522  -164.923
8.53128      6.794  -164.930
8.65537      7.067  -164.936
8.78126      7.340  -164.943
8.90899      7.613  -164.950
9.03857      7.886  -164.957
9.17004      8.158  -164.963
9.30342      8.431  -164.970
9.43874      8.704  -164.977
9.57603      8.977  -164.984
9.71532      9.250  -164.991
9.85663      9.523  -164.997
10.0000      9.796  -165.004
10.1455     10.068  -165.011
10.2930     10.341  -165.018
10.4427     10.614  -165.025
10.5946     10.887  -165.032
10.7487     11.160  -165.039
10.9051     11.433  -165.046
11.0637     11.706  -165.053
11.2246     11.979  -165.060
11.3879     12.252  -165.067
11.5535     12.525  -165.074
11.7216     12.798  -165.082
11.8921     13.071  -165.089
12.0650     13.344  -165.097
12.2405     13.617  -165.104
12.4186     13.890  -165.112
12.5992     14.163  -165.120
12.7825     14.436  -165.127
12.9684     14.709  -165.135
13.1570     14.982  -165.143
13.3484     15.255  -165.151
13.5426     15.528  -165.159
13.7395     15.801  -165.167
13.9394     16.075  -165.175
14.1421     16.348  -165.184
14.3478     16.621  -165.192
14.5565     16.895  -165.200
14.7683     17.168  -165.209
14.9831     17.441  -165.218
15.2010     17.714  -165.226
15.4221     17.987  -165.235
15.6464     18.261  -165.244
15.8740     18.534  -165.253
16.1049     18.807  -165.262
16.3392     19.081  -165.271
16.5768     19.354  -165.281
16.8179     19.628  -165.290
17.0626     19.901  -165.300
17.3107     20.175  -165.309
17.5625     20.448  -165.319
17.8180     20.722  -165.329
18.0771     20.995  -165.339
18.3401     21.269  -165.349
18.6068     21.542  -165.360
18.8775     21.816  -165.370
19.1521     22.090  -165.381
19.4306     22.363  -165.392
19.7133     22.637  -165.403
20.0000     22.911  -165.414
20.2909     23.185  -165.425
20.5860     23.459  -165.437
20.8855     23.732  -165.448
21.1893     24.006  -165.460
21.4975     24.280  -165.472
21.8102     24.554  -165.484
22.1274     24.828  -165.497
22.4492     25.103  -165.509
22.7758     25.377  -165.522
23.1071     25.651  -165.535
23.4432     25.925  -165.549
23.7841     26.199  -165.562
24.1301     26.473  -165.576
24.4811     26.748  -165.590
24.8372     27.022  -165.604
25.1984     27.297  -165.619
25.5649     27.571  -165.634
25.9368     27.846  -165.649
26.3141     28.120  -165.664
26.6968     28.395  -165.679
27.0851     28.670  -165.695
27.4791     28.945  -165.711
27.8788     29.220  -165.728
28.2843     29.495  -165.745
28.6957     29.770  -165.762
29.1131     30.045  -165.779
29.5365     30.320  -165.797
29.9661     30.595  -165.815
30.4020     30.870  -165.834
30.8442     31.146  -165.853
31.2929     31.421  -165.872
31.7480     31.697  -165.892
32.2098     31.972  -165.912
32.6783     32.248  -165.932
33.1536     32.524  -165.953
33.6359     32.800  -165.975
34.1251     33.076  -165.997
34.6215     33.352  -166.019
35.1250     33.628  -166.042
35.6359     33.904  -166.066
36.1543     34.181  -166.090
36.6802     34.457  -166.114
37.2137     34.734  -166.139
37.7550     35.011  -166.165
38.3041     35.288  -166.191
38.8613     35.565  -166.218
39.4265     35.842  -166.246
40.0000     36.119  -166.274
40.5818     36.396  -166.303
41.1721     36.674  -166.333
41.7710     36.951  -166.363
42.3785     37.229  -166.394
42.9949     37.507  -166.426
43.6203     37.785  -166.459
44.2548     38.063  -166.493
44.8985     38.341  -166.527
45.5515     38.620  -166.562
46.2141     38.898  -166.598
46.8863     39.177  -166.636
47.5683     39.456  -166.674
48.2602     39.735  -166.713
48.9621     40.015  -166.754
49.6743     40.295  -166.795
50.3968     40.574  -166.838
51.1299     40.854  -166.882
51.8736     41.135  -166.927
52.6281     41.415  -166.973
53.3936     41.696  -167.021
54.1702     41.976  -167.070
54.9581     42.257  -167.121
55.7575     42.538  -167.173
56.5685     42.820  -167.227
57.3914     43.102  -167.282
58.2261     43.384  -167.339
59.0730     43.666  -167.397
59.9323     43.948  -167.457
60.8040     44.231  -167.520
61.6884     44.514  -167.584
62.5857     44.797  -167.650
63.4960     45.081  -167.718
64.4196     45.364  -167.789
65.3566     45.648  -167.861
66.3073     45.933  -167.936
67.2717     46.217  -168.014
68.2502     46.502  -168.094
69.2429     46.788  -168.176
70.2501     47.073  -168.261
71.2719     47.360  -168.350
72.3086     47.646  -168.441
73.3603     47.933  -168.535
74.4274     48.220  -168.632
75.5099     48.507  -168.732
76.6083     48.795  -168.836
77.7226     49.083  -168.943
78.8531     49.372  -169.055
80.0000     49.660  -169.169
81.1636     49.950  -169.288
82.3442     50.239  -169.411
83.5419     50.530  -169.539
84.7570     50.820  -169.670
85.9899     51.111  -169.806
87.2406     51.403  -169.947
88.5096     51.695  -170.092
89.7970     51.987  -170.241
91.1031     52.280  -170.394
92.4282     52.573  -170.550
93.7726     52.867  -170.708
95.1366     53.162  -170.868
96.5204     53.458  -171.029
97.9243     53.756  -171.194
99.3486     54.057  -171.368
100.794     54.364  -171.559
102.260     54.676  -171.775
103.747     54.993  -172.025
105.256     55.312  -172.317
106.787     55.631  -172.654
108.340     55.948  -173.037
109.916     56.261  -173.467
111.515     56.573  -173.945
113.137     56.882  -174.471
114.783     57.186  -175.041
116.452     57.480  -175.646
118.146     57.760  -176.272
119.865     58.025  -176.901
121.608     58.276  -177.514
123.377     58.519  -178.096
125.171     58.755  -178.640
126.992     58.988  -179.141
128.839     59.220  -179.600
130.713     59.451   179.980
132.615     59.681   179.594
134.543     59.913   179.239
136.500     60.145   178.913
138.486     60.379   178.611
140.500     60.614   178.329
142.544     60.852   178.064
144.617     61.093   177.809
146.721     61.337   177.559
148.855     61.584   177.309
151.020     61.832   177.055
153.217     62.082   176.793
155.445     62.332   176.520
157.706     62.581   176.238
160.000     62.829   175.948
162.327     63.072   175.658
164.688     63.309   175.378
167.084     63.540   175.119
169.514     63.766   174.888
171.980     63.993   174.693
174.481     64.222   174.533
177.019     64.454   174.411
179.594     64.687   174.328
182.206     64.921   174.285
184.856     65.158   174.279
187.545     65.405   174.303
190.273     65.667   174.335
193.041     65.947   174.352
195.849     66.241   174.329
198.697     66.542   174.251
201.587     66.842   174.113
204.520     67.138   173.921
207.494     67.427   173.690
210.512     67.711   173.433
213.574     67.992   173.161
216.681     68.270   172.884
219.833     68.546   172.609
223.030     68.819   172.340
226.274     69.090   172.085
229.565     69.359   171.845
232.905     69.629   171.624
236.292     69.903   171.419
239.729     70.181   171.227
243.216     70.465   171.041
246.754     70.753   170.856
250.343     71.046   170.669
253.984     71.343   170.476
257.678     71.644   170.274
261.426     71.952   170.058
265.229     72.266   169.822
269.087     72.588   169.556
273.001     72.918   169.248
276.972     73.256   168.888
281.000     73.599   168.464
285.088     73.945   167.968
289.234     74.292   167.397
293.441     74.636   166.754
297.709     74.972   166.051
302.040     75.298   165.299
306.433     75.615   164.516
310.890     75.923   163.715
315.412     76.227   162.903
320.000     76.529   162.085
324.655     76.832   161.259
329.377     77.134   160.421
334.168     77.438   159.564
339.028     77.741   158.684
343.959     78.047   157.770
348.962     78.354   156.813
354.038     78.664   155.801
359.188     78.976   154.722
364.412     79.286   153.570
369.713     79.589   152.339
375.090     79.882   151.034
380.546     80.161   149.662
386.081     80.422   148.244
391.697     80.664   146.802
397.394     80.882   145.367
403.175     81.075   143.969
409.039     81.248   142.632
414.989     81.409   141.375
421.025     81.568   140.201
427.149     81.731   139.105
433.362     81.899   138.071
439.665     82.072   137.079
446.060     82.249   136.111
452.548     82.430   135.152
459.131     82.613   134.194
465.809     82.795   133.234
472.584     82.971   132.280
479.458     83.140   131.340
486.432     83.301   130.429
493.507     83.456   129.560
500.686     83.610   128.739
507.968     83.768   127.968
515.357     83.933   127.238
522.853     84.107   126.537
530.458     84.292   125.844
538.174     84.486   125.139
546.002     84.693   124.399
553.943     84.908   123.604
562.001     85.126   122.743
570.175     85.342   121.815
578.469     85.546   120.832
586.883     85.735   119.815
595.419     85.905   118.796
604.080     86.060   117.805
612.866     86.201   116.875
621.780     86.333   116.034
630.824     86.461   115.300
640.000     86.593   114.681
649.309     86.739   114.167
658.753     86.909   113.729
668.335     87.113   113.315
678.056     87.358   112.849
687.919     87.645   112.254
697.925     87.966   111.458
708.077     88.304   110.420
718.376     88.635   109.134
728.825     88.937   107.631
739.426     89.196   105.960
750.181     89.412   104.180
761.093     89.594   102.342
772.163     89.751   100.485
783.394     89.890    98.634
794.789     90.012    96.808
806.349     90.110    95.022
818.078     90.183    93.295
829.977     90.227    91.652
842.050     90.248    90.121
854.298     90.251    88.729
866.724     90.245    87.497
879.330     90.235    86.436
892.120     90.227    85.549
905.097     90.230    84.821
918.262     90.252    84.226
931.618     90.304    83.719
945.169     90.390    83.242
958.917     90.510    82.733
972.864     90.657    82.142
987.015     90.817    81.439
1001.37     90.976    80.619
1015.94     91.119    79.705
1030.71     91.241    78.731
1045.71     91.343    77.736
1060.92     91.432    76.753
1076.35     91.517    75.805
1092.00     91.601    74.902
1107.89     91.687    74.043
1124.00     91.777    73.221
1140.35     91.874    72.419
1156.94     91.982    71.611
1173.77     92.108    70.763
1190.84     92.252    69.841
1208.16     92.407    68.826
1225.73     92.556    67.722
1243.56     92.681    66.551
1261.65     92.774    65.352
1280.00     92.844    64.150
1298.62     92.912    62.952
1317.51     92.999    61.737
1336.67     93.109    60.471
1356.11     93.228    59.125
1375.84     93.329    57.696
1395.85     93.392    56.214
1416.15     93.409    54.739
1436.75     93.386    53.336
1457.65     93.337    52.062
1478.85     93.283    50.943
1500.36     93.246    49.960
1522.19     93.240    49.058
1544.33     93.270    48.165
1566.79     93.328    47.209
1589.58     93.395    46.147
1612.70     93.451    44.974
1636.16     93.480    43.716
1659.95     93.473    42.420
1684.10     93.434    41.136
1708.60     93.375    39.894
1733.45     93.311    38.698
1758.66     93.254    37.529
1784.24     93.205    36.371
1810.19     93.147    35.231
1836.52     93.049    34.162
1863.24     92.886    33.255
1890.34     92.657    32.615
1917.83     92.393    32.330
1945.73     92.151    32.426
1974.03     91.979    32.851
2002.74     91.893    33.486
2031.87     91.874    34.195
2061.43     91.895    34.866
2091.41     91.944    35.428
2121.83     92.023    35.839
2152.69     92.129    36.081
2184.01     92.246    36.162
2215.77     92.346    36.116
2248.00     92.409    36.005
2280.70     92.434    35.896
2313.87     92.445    35.840
2347.53     92.472    35.847
2381.68     92.537    35.884
2416.32     92.645    35.884
2451.46     92.786    35.766
2487.12     92.947    35.463
2523.30     93.119    34.931
2560.00     93.293    34.160
2597.24     93.449    33.177
2635.01     93.565    32.043
2673.34     93.623    30.838
2712.23     93.619    29.648
2751.68     93.571    28.549
2791.70     93.505    27.589
2832.31     93.444    26.778
2873.50     93.397    26.100
2915.30     93.363    25.519
2957.70     93.333    25.002
3000.72     93.303    24.533
3044.37     93.267    24.116
3088.65     93.222    23.768
3133.58     93.169    23.504
3179.16     93.114    23.332
3225.40     93.072    23.239
3272.31     93.054    23.194
3319.91     93.064    23.150
3368.20     93.097    23.062
3417.19     93.141    22.898
3466.89     93.188    22.641
3517.32     93.230    22.296
3568.48     93.265    21.878
3620.39     93.291    21.409
3673.05     93.305    20.913
3726.47     93.309    20.411
3780.67     93.304    19.920
3835.67     93.291    19.454
3891.46     93.273    19.023
3948.06     93.251    18.630
4005.49     93.225    18.279
4063.75     93.196    17.971
4122.86     93.163    17.707
4182.82     93.126    17.488
4243.66     93.090    17.319
4305.39     93.061    17.197
4368.01     93.044    17.113
4431.55     93.042    17.051
4496.01     93.054    16.986
4561.40     93.077    16.892
4627.75     93.106    16.746
4695.06     93.136    16.536
4763.35     93.164    16.263
4832.64     93.185    15.936
4902.93     93.195    15.576
4974.24     93.192    15.206
5046.60     93.176    14.856
5120.00     93.149    14.550
5194.47     93.117    14.308
5270.03     93.083    14.136
5346.68     93.053    14.030
5424.45     93.031    13.974
5503.35     93.020    13.942
5583.40     93.019    13.909
5664.61     93.025    13.851
5747.01     93.037    13.753
5830.60     93.048    13.612
5915.41     93.056    13.435
6001.45     93.058    13.236
6088.74     93.054    13.034
6177.30     93.045    12.845
6267.15     93.032    12.678
6358.31     93.019    12.535
6450.80     93.007    12.412
6544.62     92.998    12.299
6639.82     92.991    12.186
6736.40     92.985    12.067
6834.38     92.977    11.942
6933.79     92.967    11.817
7034.64     92.953    11.699
7136.96     92.937    11.597
7240.77     92.919    11.515
7346.09     92.902    11.453
7452.94     92.886    11.408
7561.35     92.872    11.373
7671.33     92.859    11.343
7782.91     92.846    11.315
7896.12     92.833    11.289
8010.97     92.819    11.271
8127.49     92.803    11.267
8245.71     92.787    11.282
8365.65     92.771    11.321
8487.33     92.757    11.381
8610.78     92.746    11.456
8736.03     92.739    11.535
8863.09     92.734    11.611
8992.01     92.729    11.682
9122.80     92.722    11.757
9255.50     92.711    11.854
9390.12     92.695    11.999
9526.70     92.672    12.216
9665.27     92.650    12.514
9805.86     92.642    12.874
9948.49     92.662    13.251
10093.2     92.723    13.576
10240.0     92.820    13.784
10388.9     92.928    13.841
10540.1     93.023    13.752
10693.4     93.087    13.556
10848.9     93.120    13.303
11006.7     93.132    13.038
11166.8     93.140    12.788
11329.2     93.149    12.558
11494.0     93.160    12.345
11661.2     93.165    12.146
11830.8     93.159    11.966
12002.9     93.141    11.815
12177.5     93.116    11.707
12354.6     93.090    11.651
12534.3     93.068    11.648
12716.6     93.050    11.695
12901.6     93.036    11.785
13089.2     93.027    11.912
13279.6     93.023    12.071
13472.8     93.024    12.256
13668.8     93.036    12.458
13867.6     93.062    12.658
14069.3     93.107    12.821
14273.9     93.176    12.896
14481.5     93.266    12.828
14692.2     93.372    12.571
14905.9     93.479    12.103
15122.7     93.561    11.450
15342.7     93.594    10.677
15565.8     93.559     9.881
15792.2     93.452     9.174
16021.9     93.288     8.664
16255.0     93.101     8.422
16491.4     92.921     8.469
16731.3     92.771     8.778
16974.7     92.659     9.281
17221.6     92.581     9.896
17472.1     92.534    10.550
17726.2     92.514    11.186
17984.0     92.513    11.771
18245.6     92.521    12.290
18511.0     92.527    12.745
18780.2     92.523    13.160
19053.4     92.508    13.569
19330.5     92.482    14.013
19611.7     92.445    14.533
19897.0     92.401    15.170
20186.4     92.355    15.953
20480.0     92.320    16.892
20777.9     92.311    17.968
21080.1     92.345    19.136
21386.7     92.427    20.329
21697.8     92.555    21.469
22013.4     92.723    22.482
22333.6     92.927    23.301
22658.4     93.160    23.873
22988.0     93.413    24.159
23322.4     93.672    24.139
23661.6     93.919    23.827
24005.8     94.136    23.269
24355.0     94.304    22.549
24709.2     94.407    21.771
25068.6     94.445    21.043
25433.2     94.436    20.443
25803.2     94.414    20.006
26178.5     94.418    19.709
26559.3     94.466    19.483
26945.6     94.547    19.254
27337.5     94.631    18.983
27735.2     94.690    18.680
28138.6     94.714    18.392
28547.9     94.713    18.172
28963.1     94.714    18.040
29384.4     94.748    17.963
29811.8     94.833    17.855
30245.4     94.969    17.618
30685.3     95.130    17.176
31131.7     95.280    16.518
31584.5     95.385    15.687
32043.9     95.431    14.755
32510.0     95.425    13.792
32982.8     95.399    12.837
33462.6     95.383    11.895
33949.3     95.382    10.949
34443.1     95.378     9.982
34944.1     95.337     8.992
35452.4     95.246     7.996
35968.0     95.116     7.021
36491.2     94.967     6.098
37022.0     94.807     5.249
37560.5     94.619     4.499
38106.8     94.385     3.894
38661.1     94.114     3.425
39223.4     93.880     3.110
39793.9     93.707     2.901
